# Pulseq sequence file
# Created by PyPulseq

[VERSION]
major 1
minor 4
revision 0

[DEFINITIONS]
AdcRasterTime 1e-07 
BlockDurationRaster 1e-05 
GradientRasterTime 1e-05 
RadiofrequencyRasterTime 1e-06 

# Format of blocks:
# NUM DUR RF  GX  GY  GZ  ADC  EXT
[BLOCKS]
  1 1060   0   1   0   0  0  0
  2 1999   0   0   0   0  0  0
  3 1060   0   1   0   0  0  0
  4 1999   0   0   0   0  0  0
  5 1060   0   1   0   0  0  0
  6 1999   0   0   0   0  0  0
  7 1060   0   1   0   0  0  0
  8 1999   0   0   0   0  0  0
  9 1060   0   1   0   0  0  0
 10 1999   0   0   0   0  0  0
 11 1060   0   1   0   0  0  0
 12 1999   0   0   0   0  0  0
 13 1060   0   1   0   0  0  0
 14 1999   0   0   0   0  0  0
 15 1060   0   1   0   0  0  0
 16 1999   0   0   0   0  0  0
 17 1060   0   1   0   0  0  0
 18 1999   0   0   0   0  0  0
 19 1060   0   1   0   0  0  0
 20 1999   0   0   0   0  0  0
 21 1060   0   1   0   0  0  0
 22 1999   0   0   0   0  0  0
 23 1060   0   1   0   0  0  0
 24 1999   0   0   0   0  0  0
 25 1060   0   1   0   0  0  0
 26 1999   0   0   0   0  0  0
 27 1060   0   1   0   0  0  0
 28 1999   0   0   0   0  0  0
 29 1060   0   1   0   0  0  0
 30 1999   0   0   0   0  0  0
 31 1060   0   1   0   0  0  0
 32 1999   0   0   0   0  0  0
 33 1060   0   1   0   0  0  0
 34 1999   0   0   0   0  0  0
 35 1060   0   1   0   0  0  0
 36 1999   0   0   0   0  0  0
 37 1060   0   1   0   0  0  0
 38 1999   0   0   0   0  0  0
 39 1060   0   1   0   0  0  0
 40 1999   0   0   0   0  0  0
 41 1060   0   1   0   0  0  0
 42 1999   0   0   0   0  0  0
 43 1060   0   1   0   0  0  0
 44 1999   0   0   0   0  0  0
 45 1060   0   1   0   0  0  0
 46 1999   0   0   0   0  0  0
 47 1060   0   1   0   0  0  0
 48 1999   0   0   0   0  0  0
 49 1060   0   1   0   0  0  0
 50 1999   0   0   0   0  0  0
 51 1060   0   1   0   0  0  0
 52 1999   0   0   0   0  0  0
 53 1060   0   1   0   0  0  0
 54 1999   0   0   0   0  0  0
 55 1060   0   1   0   0  0  0
 56 1999   0   0   0   0  0  0
 57 1060   0   1   0   0  0  0
 58 1999   0   0   0   0  0  0
 59 1060   0   1   0   0  0  0
 60 1999   0   0   0   0  0  0
 61 1060   0   1   0   0  0  0
 62 1999   0   0   0   0  0  0
 63 1060   0   1   0   0  0  0
 64 1999   0   0   0   0  0  0
 65 1060   0   1   0   0  0  0
 66 1999   0   0   0   0  0  0
 67 1060   0   1   0   0  0  0
 68 1999   0   0   0   0  0  0
 69 1060   0   1   0   0  0  0
 70 1999   0   0   0   0  0  0
 71 1060   0   1   0   0  0  0
 72 1999   0   0   0   0  0  0
 73 1060   0   1   0   0  0  0
 74 1999   0   0   0   0  0  0
 75 1060   0   1   0   0  0  0
 76 1999   0   0   0   0  0  0
 77 1060   0   1   0   0  0  0
 78 1999   0   0   0   0  0  0
 79 1060   0   1   0   0  0  0
 80 1999   0   0   0   0  0  0
 81 1060   0   1   0   0  0  0
 82 1999   0   0   0   0  0  0
 83 1060   0   1   0   0  0  0
 84 1999   0   0   0   0  0  0
 85 1060   0   1   0   0  0  0
 86 1999   0   0   0   0  0  0
 87 1060   0   1   0   0  0  0
 88 1999   0   0   0   0  0  0
 89 1060   0   1   0   0  0  0
 90 1999   0   0   0   0  0  0
 91 1060   0   1   0   0  0  0
 92 1999   0   0   0   0  0  0
 93 1060   0   1   0   0  0  0
 94 1999   0   0   0   0  0  0
 95 1060   0   1   0   0  0  0
 96 1999   0   0   0   0  0  0
 97 1060   0   1   0   0  0  0
 98 1999   0   0   0   0  0  0
 99 1060   0   1   0   0  0  0
100 1999   0   0   0   0  0  0
101 1060   0   1   0   0  0  0
102 1999   0   0   0   0  0  0
103 1060   0   1   0   0  0  0
104 1999   0   0   0   0  0  0
105 1060   0   1   0   0  0  0
106 1999   0   0   0   0  0  0
107 1060   0   1   0   0  0  0
108 1999   0   0   0   0  0  0
109 1060   0   1   0   0  0  0
110 1999   0   0   0   0  0  0
111 1060   0   1   0   0  0  0
112 1999   0   0   0   0  0  0
113 1060   0   1   0   0  0  0
114 1999   0   0   0   0  0  0
115 1060   0   1   0   0  0  0
116 1999   0   0   0   0  0  0
117 1060   0   1   0   0  0  0
118 1999   0   0   0   0  0  0
119 1060   0   1   0   0  0  0
120 1999   0   0   0   0  0  0
121 1060   0   1   0   0  0  0
122 1999   0   0   0   0  0  0
123 1060   0   1   0   0  0  0
124 1999   0   0   0   0  0  0
125 1060   0   1   0   0  0  0
126 1999   0   0   0   0  0  0
127 1060   0   1   0   0  0  0
128 1999   0   0   0   0  0  0
129 1060   0   1   0   0  0  0
130 1999   0   0   0   0  0  0
131 1060   0   1   0   0  0  0
132 1999   0   0   0   0  0  0
133 1060   0   1   0   0  0  0
134 1999   0   0   0   0  0  0
135 1060   0   1   0   0  0  0
136 1999   0   0   0   0  0  0
137 1060   0   1   0   0  0  0
138 1999   0   0   0   0  0  0
139 1060   0   1   0   0  0  0
140 1999   0   0   0   0  0  0
141 1060   0   1   0   0  0  0
142 1999   0   0   0   0  0  0
143 1060   0   1   0   0  0  0
144 1999   0   0   0   0  0  0
145 1060   0   1   0   0  0  0
146 1999   0   0   0   0  0  0
147 1060   0   1   0   0  0  0
148 1999   0   0   0   0  0  0
149 1060   0   1   0   0  0  0
150 1999   0   0   0   0  0  0
151 1060   0   1   0   0  0  0
152 1999   0   0   0   0  0  0
153 1060   0   1   0   0  0  0
154 1999   0   0   0   0  0  0
155 1060   0   1   0   0  0  0
156 1999   0   0   0   0  0  0
157 1060   0   1   0   0  0  0
158 1999   0   0   0   0  0  0
159 1060   0   1   0   0  0  0
160 1999   0   0   0   0  0  0
161 1060   0   1   0   0  0  0
162 1999   0   0   0   0  0  0
163 1060   0   1   0   0  0  0
164 1999   0   0   0   0  0  0
165 1060   0   1   0   0  0  0
166 1999   0   0   0   0  0  0
167 1060   0   1   0   0  0  0
168 1999   0   0   0   0  0  0
169 1060   0   1   0   0  0  0
170 1999   0   0   0   0  0  0
171 1060   0   1   0   0  0  0
172 1999   0   0   0   0  0  0
173 1060   0   1   0   0  0  0
174 1999   0   0   0   0  0  0
175 1060   0   1   0   0  0  0
176 1999   0   0   0   0  0  0
177 1060   0   1   0   0  0  0
178 1999   0   0   0   0  0  0
179 1060   0   1   0   0  0  0
180 1999   0   0   0   0  0  0
181 1060   0   1   0   0  0  0
182 1999   0   0   0   0  0  0
183 1060   0   1   0   0  0  0
184 1999   0   0   0   0  0  0
185 1060   0   1   0   0  0  0
186 1999   0   0   0   0  0  0
187 1060   0   1   0   0  0  0
188 1999   0   0   0   0  0  0
189 1060   0   1   0   0  0  0
190 1999   0   0   0   0  0  0
191 1060   0   1   0   0  0  0
192 1999   0   0   0   0  0  0
193 1060   0   1   0   0  0  0
194 1999   0   0   0   0  0  0
195 1060   0   1   0   0  0  0
196 1999   0   0   0   0  0  0
197 1060   0   1   0   0  0  0
198 1999   0   0   0   0  0  0
199 1060   0   1   0   0  0  0
200 1999   0   0   0   0  0  0
201 1060   0   1   0   0  0  0
202 1999   0   0   0   0  0  0
203 1060   0   1   0   0  0  0
204 1999   0   0   0   0  0  0
205 1060   0   1   0   0  0  0
206 1999   0   0   0   0  0  0
207 1060   0   1   0   0  0  0
208 1999   0   0   0   0  0  0
209 1060   0   1   0   0  0  0
210 1999   0   0   0   0  0  0
211 1060   0   1   0   0  0  0
212 1999   0   0   0   0  0  0
213 1060   0   1   0   0  0  0
214 1999   0   0   0   0  0  0
215 1060   0   1   0   0  0  0
216 1999   0   0   0   0  0  0
217 1060   0   1   0   0  0  0
218 1999   0   0   0   0  0  0
219 1060   0   1   0   0  0  0
220 1999   0   0   0   0  0  0
221 1060   0   1   0   0  0  0
222 1999   0   0   0   0  0  0
223 1060   0   1   0   0  0  0
224 1999   0   0   0   0  0  0
225 1060   0   1   0   0  0  0
226 1999   0   0   0   0  0  0
227 1060   0   1   0   0  0  0
228 1999   0   0   0   0  0  0
229 1060   0   1   0   0  0  0
230 1999   0   0   0   0  0  0
231 1060   0   1   0   0  0  0
232 1999   0   0   0   0  0  0
233 1060   0   1   0   0  0  0
234 1999   0   0   0   0  0  0
235 1060   0   1   0   0  0  0
236 1999   0   0   0   0  0  0
237 1060   0   1   0   0  0  0
238 1999   0   0   0   0  0  0
239 1060   0   1   0   0  0  0
240 1999   0   0   0   0  0  0
241 1060   0   1   0   0  0  0
242 1999   0   0   0   0  0  0
243 1060   0   1   0   0  0  0
244 1999   0   0   0   0  0  0
245 1060   0   1   0   0  0  0
246 1999   0   0   0   0  0  0
247 1060   0   1   0   0  0  0
248 1999   0   0   0   0  0  0
249 1060   0   1   0   0  0  0
250 1999   0   0   0   0  0  0
251 1060   0   1   0   0  0  0
252 1999   0   0   0   0  0  0
253 1060   0   1   0   0  0  0
254 1999   0   0   0   0  0  0
255 1060   0   1   0   0  0  0
256 1999   0   0   0   0  0  0
257 1060   0   1   0   0  0  0
258 1999   0   0   0   0  0  0
259 1060   0   1   0   0  0  0
260 1999   0   0   0   0  0  0
261 1060   0   1   0   0  0  0
262 1999   0   0   0   0  0  0
263 1060   0   1   0   0  0  0
264 1999   0   0   0   0  0  0
265 1060   0   1   0   0  0  0
266 1999   0   0   0   0  0  0
267 1060   0   1   0   0  0  0
268 1999   0   0   0   0  0  0
269 1060   0   1   0   0  0  0
270 1999   0   0   0   0  0  0
271 1060   0   1   0   0  0  0
272 1999   0   0   0   0  0  0
273 1060   0   1   0   0  0  0
274 1999   0   0   0   0  0  0
275 1060   0   1   0   0  0  0
276 1999   0   0   0   0  0  0
277 1060   0   1   0   0  0  0
278 1999   0   0   0   0  0  0
279 1060   0   1   0   0  0  0
280 1999   0   0   0   0  0  0
281 1060   0   1   0   0  0  0
282 1999   0   0   0   0  0  0
283 1060   0   1   0   0  0  0
284 1999   0   0   0   0  0  0
285 1060   0   1   0   0  0  0
286 1999   0   0   0   0  0  0
287 1060   0   1   0   0  0  0
288 1999   0   0   0   0  0  0
289 1060   0   1   0   0  0  0
290 1999   0   0   0   0  0  0
291 1060   0   1   0   0  0  0
292 1999   0   0   0   0  0  0
293 1060   0   1   0   0  0  0
294 1999   0   0   0   0  0  0
295 1060   0   1   0   0  0  0
296 1999   0   0   0   0  0  0
297 1060   0   1   0   0  0  0
298 1999   0   0   0   0  0  0
299 1060   0   1   0   0  0  0
300 1999   0   0   0   0  0  0
301 1060   0   1   0   0  0  0
302 1999   0   0   0   0  0  0
303 1060   0   1   0   0  0  0
304 1999   0   0   0   0  0  0
305 1060   0   1   0   0  0  0
306 1999   0   0   0   0  0  0
307 1060   0   1   0   0  0  0
308 1999   0   0   0   0  0  0
309 1060   0   1   0   0  0  0
310 1999   0   0   0   0  0  0
311 1060   0   1   0   0  0  0
312 1999   0   0   0   0  0  0
313 1060   0   1   0   0  0  0
314 1999   0   0   0   0  0  0
315 1060   0   1   0   0  0  0
316 1999   0   0   0   0  0  0
317 1060   0   1   0   0  0  0
318 1999   0   0   0   0  0  0
319 1060   0   1   0   0  0  0
320 1999   0   0   0   0  0  0
321 1060   0   1   0   0  0  0
322 1999   0   0   0   0  0  0
323 1060   0   1   0   0  0  0
324 1999   0   0   0   0  0  0
325 1060   0   1   0   0  0  0
326 1999   0   0   0   0  0  0
327 1060   0   1   0   0  0  0
328 1999   0   0   0   0  0  0
329 1060   0   1   0   0  0  0
330 1999   0   0   0   0  0  0
331 1060   0   1   0   0  0  0
332 1999   0   0   0   0  0  0
333 1060   0   1   0   0  0  0
334 1999   0   0   0   0  0  0
335 1060   0   1   0   0  0  0
336 1999   0   0   0   0  0  0
337 1060   0   1   0   0  0  0
338 1999   0   0   0   0  0  0
339 1060   0   1   0   0  0  0
340 1999   0   0   0   0  0  0
341 1060   0   1   0   0  0  0
342 1999   0   0   0   0  0  0
343 1060   0   1   0   0  0  0
344 1999   0   0   0   0  0  0
345 1060   0   1   0   0  0  0
346 1999   0   0   0   0  0  0
347 1060   0   1   0   0  0  0
348 1999   0   0   0   0  0  0
349 1060   0   1   0   0  0  0
350 1999   0   0   0   0  0  0
351 1060   0   1   0   0  0  0
352 1999   0   0   0   0  0  0
353 1060   0   1   0   0  0  0
354 1999   0   0   0   0  0  0
355 1060   0   1   0   0  0  0
356 1999   0   0   0   0  0  0
357 1060   0   1   0   0  0  0
358 1999   0   0   0   0  0  0
359 1060   0   1   0   0  0  0
360 1999   0   0   0   0  0  0
361 1060   0   1   0   0  0  0
362 1999   0   0   0   0  0  0
363 1060   0   1   0   0  0  0
364 1999   0   0   0   0  0  0
365 1060   0   1   0   0  0  0
366 1999   0   0   0   0  0  0
367 1060   0   1   0   0  0  0
368 1999   0   0   0   0  0  0
369 1060   0   1   0   0  0  0
370 1999   0   0   0   0  0  0
371 1060   0   1   0   0  0  0
372 1999   0   0   0   0  0  0
373 1060   0   1   0   0  0  0
374 1999   0   0   0   0  0  0
375 1060   0   1   0   0  0  0
376 1999   0   0   0   0  0  0
377 1060   0   1   0   0  0  0
378 1999   0   0   0   0  0  0
379 1060   0   1   0   0  0  0
380 1999   0   0   0   0  0  0
381 1060   0   1   0   0  0  0
382 1999   0   0   0   0  0  0
383 1060   0   1   0   0  0  0
384 1999   0   0   0   0  0  0
385 1060   0   1   0   0  0  0
386 1999   0   0   0   0  0  0
387 1060   0   1   0   0  0  0
388 1999   0   0   0   0  0  0
389 1060   0   1   0   0  0  0
390 1999   0   0   0   0  0  0
391 1060   0   1   0   0  0  0
392 1999   0   0   0   0  0  0
393 1060   0   1   0   0  0  0
394 1999   0   0   0   0  0  0
395 1060   0   1   0   0  0  0
396 1999   0   0   0   0  0  0
397 1060   0   1   0   0  0  0
398 1999   0   0   0   0  0  0
399 1060   0   1   0   0  0  0
400 1999   0   0   0   0  0  0
401 1060   0   1   0   0  0  0
402 1999   0   0   0   0  0  0
403 1060   0   1   0   0  0  0
404 1999   0   0   0   0  0  0
405 1060   0   1   0   0  0  0
406 1999   0   0   0   0  0  0
407 1060   0   1   0   0  0  0
408 1999   0   0   0   0  0  0
409 1060   0   1   0   0  0  0
410 1999   0   0   0   0  0  0
411 1060   0   1   0   0  0  0
412 1999   0   0   0   0  0  0
413 1060   0   1   0   0  0  0
414 1999   0   0   0   0  0  0
415 1060   0   1   0   0  0  0
416 1999   0   0   0   0  0  0
417 1060   0   1   0   0  0  0
418 1999   0   0   0   0  0  0
419 1060   0   1   0   0  0  0
420 1999   0   0   0   0  0  0
421 1060   0   1   0   0  0  0
422 1999   0   0   0   0  0  0
423 1060   0   1   0   0  0  0
424 1999   0   0   0   0  0  0
425 1060   0   1   0   0  0  0
426 1999   0   0   0   0  0  0
427 1060   0   1   0   0  0  0
428 1999   0   0   0   0  0  0
429 1060   0   1   0   0  0  0
430 1999   0   0   0   0  0  0
431 1060   0   1   0   0  0  0
432 1999   0   0   0   0  0  0
433 1060   0   1   0   0  0  0
434 1999   0   0   0   0  0  0
435 1060   0   1   0   0  0  0
436 1999   0   0   0   0  0  0
437 1060   0   1   0   0  0  0
438 1999   0   0   0   0  0  0
439 1060   0   1   0   0  0  0
440 1999   0   0   0   0  0  0
441 1060   0   1   0   0  0  0
442 1999   0   0   0   0  0  0
443 1060   0   1   0   0  0  0
444 1999   0   0   0   0  0  0
445 1060   0   1   0   0  0  0
446 1999   0   0   0   0  0  0
447 1060   0   1   0   0  0  0
448 1999   0   0   0   0  0  0
449 1060   0   1   0   0  0  0
450 1999   0   0   0   0  0  0
451 1060   0   1   0   0  0  0
452 1999   0   0   0   0  0  0
453 1060   0   1   0   0  0  0
454 1999   0   0   0   0  0  0
455 1060   0   1   0   0  0  0
456 1999   0   0   0   0  0  0
457 1060   0   1   0   0  0  0
458 1999   0   0   0   0  0  0
459 1060   0   1   0   0  0  0
460 1999   0   0   0   0  0  0
461 1060   0   1   0   0  0  0
462 1999   0   0   0   0  0  0
463 1060   0   1   0   0  0  0
464 1999   0   0   0   0  0  0
465 1060   0   1   0   0  0  0
466 1999   0   0   0   0  0  0
467 1060   0   1   0   0  0  0
468 1999   0   0   0   0  0  0
469 1060   0   1   0   0  0  0
470 1999   0   0   0   0  0  0
471 1060   0   1   0   0  0  0
472 1999   0   0   0   0  0  0
473 1060   0   1   0   0  0  0
474 1999   0   0   0   0  0  0
475 1060   0   1   0   0  0  0
476 1999   0   0   0   0  0  0
477 1060   0   1   0   0  0  0
478 1999   0   0   0   0  0  0
479 1060   0   1   0   0  0  0
480 1999   0   0   0   0  0  0
481 1060   0   1   0   0  0  0
482 1999   0   0   0   0  0  0
483 1060   0   1   0   0  0  0
484 1999   0   0   0   0  0  0
485 1060   0   1   0   0  0  0
486 1999   0   0   0   0  0  0
487 1060   0   1   0   0  0  0
488 1999   0   0   0   0  0  0
489 1060   0   1   0   0  0  0
490 1999   0   0   0   0  0  0
491 1060   0   1   0   0  0  0
492 1999   0   0   0   0  0  0
493 1060   0   1   0   0  0  0
494 1999   0   0   0   0  0  0
495 1060   0   1   0   0  0  0
496 1999   0   0   0   0  0  0
497 1060   0   1   0   0  0  0
498 1999   0   0   0   0  0  0
499 1060   0   1   0   0  0  0
500 1999   0   0   0   0  0  0
501 1060   0   1   0   0  0  0
502 1999   0   0   0   0  0  0
503 1060   0   1   0   0  0  0
504 1999   0   0   0   0  0  0
505 1060   0   1   0   0  0  0
506 1999   0   0   0   0  0  0
507 1060   0   1   0   0  0  0
508 1999   0   0   0   0  0  0
509 1060   0   1   0   0  0  0
510 1999   0   0   0   0  0  0
511 1060   0   1   0   0  0  0
512 1999   0   0   0   0  0  0

# Format of trapezoid gradients:
# id amplitude rise flat fall delay
# ..      Hz/m   us   us   us    us
[TRAP]
 1       383184 300 10000 300   0


[SIGNATURE]
# This is the hash of the Pulseq file, calculated right before the [SIGNATURE] section was added
# It can be reproduced/verified with md5sum if the file trimmed to the position right above [SIGNATURE]
# The new line character preceding [SIGNATURE] BELONGS to the signature (and needs to be stripped away for recalculating/verification)
Type md5
Hash d7c33ea7c8cc9a9532c8858593dc6779
